@<TRIPOS>MOLECULE
tmp/3gxrD01.pdb
 165 153 0 0 0
SMALL
GASTEIGER

@<TRIPOS>ATOM
      1  N         34.5080   48.4070   49.2530 N.3    16  LYS16      -0.1231
      2  CA        33.6930   47.5850   48.3440 C.3    16  LYS16       0.1693
      3  C         33.8270   48.0510   46.8810 C.2    16  LYS16       0.2592
      4  O         34.1620   47.2690   45.9690 O.2    16  LYS16      -0.2718
      5  CB        32.2270   47.5830   48.7810 C.3    16  LYS16       0.0285
      6  CG        31.3580   46.6220   47.9670 C.3    16  LYS16       0.0035
      7  CD        29.8810   46.5230   48.4320 C.3    16  LYS16       0.0206
      8  CE        29.0720   45.8160   47.3330 C.3    16  LYS16       0.1093
      9  NZ        27.6110   45.6270   47.6240 N.3    16  LYS16      -0.1314
     10  N         33.6510   49.3430   46.6590 N.am   17  THR17      -0.1953
     11  CA        33.7670   49.8030   45.2540 C.3    17  THR17       0.1897
     12  C         35.1660   49.7460   44.7010 C.2    17  THR17       0.2313
     13  O         35.3390   49.3680   43.5510 O.2    17  THR17      -0.2863
     14  CB        32.8730   51.0430   44.8070 C.3    17  THR17       0.1794
     15  OG1       33.6180   51.9900   43.9920 O.3    17  THR17      -0.2208
     16  CG2       32.0980   51.6320   45.9020 C.3    17  THR17       0.0378
     17  N         36.2260   46.5830   42.8440 N.3    20  GLN20      -0.1231
     18  CA        35.7870   46.2730   41.5020 C.3    20  GLN20       0.1698
     19  C         36.9530   46.3220   40.4940 C.2    20  GLN20       0.2592
     20  O         36.8980   45.6340   39.4960 O.2    20  GLN20      -0.2718
     21  CB        34.6760   47.2290   41.0820 C.3    20  GLN20       0.0381
     22  CG        35.1390   48.4580   40.3570 C.3    20  GLN20       0.0905
     23  CD        33.9330   49.3200   40.0650 C.2    20  GLN20       0.2608
     24  OE1       33.1090   49.5320   40.9630 O.2    20  GLN20      -0.2717
     25  NE2       33.7830   49.7640   38.8180 N.am   20  GLN20      -0.0878
     26  N         37.9760   47.1370   40.7490 N.am   21  ASP21      -0.1974
     27  CA        39.1970   47.1270   39.9330 C.3    21  ASP21       0.1709
     28  C         40.3590   46.3950   40.6610 C.2    21  ASP21       0.2293
     29  O         41.5400   46.5370   40.2700 O.2    21  ASP21      -0.2864
     30  CB        39.6240   48.5530   39.5650 C.3    21  ASP21       0.1436
     31  CG        38.8660   49.0920   38.3360 C.2    21  ASP21       0.3671
     32  OD1       39.0730   50.2740   37.9880 O.co2  21  ASP21      -0.2456
     33  OD2       38.1170   48.3130   37.7080 O.co2  21  ASP21      -0.2456
     34  N         41.6640   55.0440   34.7350 N.3    37  THR37      -0.1203
     35  CA        41.4110   53.8070   33.9950 C.3    37  THR37       0.1994
     36  C         40.4320   54.0800   32.8530 C.2    37  THR37       0.2617
     37  O         40.5960   53.5580   31.7150 O.2    37  THR37      -0.2717
     38  CB        40.9040   52.7250   34.9850 C.3    37  THR37       0.1784
     39  OG1       42.0080   52.2890   35.7860 O.3    37  THR37      -0.2211
     40  CG2       40.2060   51.5190   34.3480 C.3    37  THR37       0.0376
     41  N         39.4610   54.9460   33.1390 N.am   38  ASP38      -0.1973
     42  CA        38.3980   55.2670   32.1330 C.3    38  ASP38       0.1709
     43  C         38.6750   56.4720   31.2300 C.2    38  ASP38       0.2293
     44  O         37.8680   56.7600   30.3460 O.2    38  ASP38      -0.2864
     45  CB        37.0590   55.4750   32.8570 C.3    38  ASP38       0.1436
     46  CG        36.6310   54.2670   33.6270 C.2    38  ASP38       0.3671
     47  OD1       37.0750   53.1370   33.3190 O.co2  38  ASP38      -0.2456
     48  OD2       35.8250   54.4510   34.5700 O.co2  38  ASP38      -0.2456
     49  N         38.8270   55.9170   27.2870 N.3    41  ARG41      -0.1245
     50  CA        37.5160   55.6240   26.7280 C.3    41  ARG41       0.1563
     51  C         36.6470   56.8890   26.7860 C.2    41  ARG41       0.2260
     52  O         35.8620   57.1840   25.8760 O.2    41  ARG41      -0.2867
     53  CB        36.8650   54.5540   27.5640 C.3    41  ARG41       0.0307
     54  CG        36.0390   53.5170   26.8530 C.3    41  ARG41       0.0489
     55  CD        36.2520   52.1810   27.5340 C.3    41  ARG41       0.2205
     56  NE        36.5600   52.3530   28.9680 N.pl3  41  ARG41      -0.0865
     57  CZ        37.3480   51.5580   29.6890 C.cat  41  ARG41       0.5346
     58  NH1       37.9680   50.5020   29.1290 N.pl3  41  ARG41       0.1354
     59  NH2       37.5310   51.8200   30.9850 N.pl3  41  ARG41       0.1354
     60  N         31.6580   56.4010   36.8550 N.3    69  ARG69      -0.1231
     61  CA        31.1270   55.5660   37.9390 C.3    69  ARG69       0.1694
     62  C         30.0310   54.6060   37.4470 C.2    69  ARG69       0.2591
     63  O         29.9900   53.4280   37.8080 O.2    69  ARG69      -0.2718
     64  CB        30.5900   56.4740   39.0570 C.3    69  ARG69       0.0321
     65  CG        29.7280   55.7690   40.1060 C.3    69  ARG69       0.0489
     66  CD        30.5810   54.7860   41.0250 C.3    69  ARG69       0.2205
     67  NE        29.6490   54.1190   41.9240 N.pl3  69  ARG69      -0.0865
     68  CZ        29.7250   54.0760   43.2630 C.cat  69  ARG69       0.5346
     69  NH1       30.7610   54.6560   43.9120 N.pl3  69  ARG69       0.1354
     70  NH2       28.7290   53.4800   43.9440 N.pl3  69  ARG69       0.1354
     71  N         29.1750   55.0780   36.5530 N.am   70  GLU70      -0.1979
     72  CA        27.9940   54.2870   36.1760 C.3    70  GLU70       0.1602
     73  C         28.2680   53.0940   35.2350 C.2    70  GLU70       0.2287
     74  O         27.6990   51.9870   35.4070 O.2    70  GLU70      -0.2864
     75  CB        26.9390   55.2440   35.5780 C.3    70  GLU70       0.0415
     76  CG        26.2970   56.2060   36.5980 C.3    70  GLU70       0.1163
     77  CD        25.3740   55.4890   37.6170 C.2    70  GLU70       0.3649
     78  OE1       25.1150   54.2520   37.5350 O.co2  70  GLU70      -0.2457
     79  OE2       24.9460   56.1820   38.5000 O.co2  70  GLU70      -0.2457
     80  N         31.7580   52.7460   33.6340 N.3    72  ARG72      -0.1245
     81  CA        33.1740   52.7960   33.1900 C.3    72  ARG72       0.1563
     82  C         33.3140   53.3190   31.7390 C.2    72  ARG72       0.2260
     83  O         34.0500   52.7370   30.9290 O.2    72  ARG72      -0.2867
     84  CB        33.8450   51.4030   33.2960 C.3    72  ARG72       0.0307
     85  CG        33.5280   50.6510   34.6190 C.3    72  ARG72       0.0489
     86  CD        33.6700   51.5970   35.8550 C.3    72  ARG72       0.2205
     87  NE        35.0300   52.1020   35.9630 N.pl3  72  ARG72      -0.0865
     88  CZ        36.0480   51.4730   36.5520 C.cat  72  ARG72       0.5346
     89  NH1       35.8760   50.2980   37.1620 N.pl3  72  ARG72       0.1354
     90  NH2       37.2290   52.0390   36.5320 N.pl3  72  ARG72       0.1354
     91  N         32.5460   50.6630   29.1210 N.3    75  ASN75      -0.1225
     92  CA        33.2930   49.4210   29.1020 C.3    75  ASN75       0.1785
     93  C         32.4550   48.2430   29.6010 C.2    75  ASN75       0.2597
     94  O         32.6280   47.1490   29.1460 O.2    75  ASN75      -0.2718
     95  CB        34.6030   49.5660   29.9030 C.3    75  ASN75       0.1169
     96  CG        35.6810   48.6060   29.4270 C.2    75  ASN75       0.2627
     97  OD1       35.7920   48.3330   28.2240 O.2    75  ASN75      -0.2716
     98  ND2       36.4130   48.0370   30.3700 N.am   75  ASN75      -0.0877
     99  N         31.5420   48.4460   30.5280 N.am   76  VAL76      -0.1966
    100  CA        30.8060   47.2860   31.0140 C.3    76  VAL76       0.1727
    101  C         29.4150   47.1180   30.3600 C.2    76  VAL76       0.2616
    102  O         28.6940   46.1370   30.6710 O.2    76  VAL76      -0.2715
    103  CB        30.6930   47.2430   32.5780 C.3    76  VAL76       0.0290
    104  CG1       32.1050   47.1120   33.2430 C.3    76  VAL76       0.0023
    105  CG2       29.9620   48.4490   33.1320 C.3    76  VAL76       0.0023
    106  N         29.0210   48.0520   29.4960 N.am   77  ILE77      -0.1977
    107  CA        27.7110   47.9430   28.8310 C.3    77  ILE77       0.1596
    108  C         27.7790   47.8240   27.2910 C.2    77  ILE77       0.2287
    109  O         26.7900   47.5850   26.6540 O.2    77  ILE77      -0.2864
    110  CB        26.7250   49.1070   29.2480 C.3    77  ILE77       0.0276
    111  CG1       27.3220   50.4560   28.8320 C.3    77  ILE77       0.0022
    112  CG2       26.3560   49.0180   30.7490 C.3    77  ILE77       0.0022
    113  CD1       26.4190   51.6490   29.1280 C.3    77  ILE77       0.0001
    114  N         22.5860   47.8620   32.0090 N.3    86  GLY86      -0.1210
    115  CA        23.1980   47.4280   33.2390 C.3    86  GLY86       0.1956
    116  C         22.1520   47.2110   34.2970 C.2    86  GLY86       0.2611
    117  O         20.9350   47.3810   34.0540 O.2    86  GLY86      -0.2717
    118  N         22.6150   46.8170   35.4720 N.am   87  ASP87      -0.1973
    119  CA        21.7380   46.6600   36.6250 C.3    87  ASP87       0.1709
    120  C         20.5620   45.7140   36.2820 C.2    87  ASP87       0.2293
    121  O         19.4030   46.0890   36.4490 O.2    87  ASP87      -0.2864
    122  CB        21.2140   48.0500   37.0090 C.3    87  ASP87       0.1436
    123  CG        20.7940   48.1590   38.4490 C.2    87  ASP87       0.3671
    124  OD1       21.1180   47.2590   39.2530 O.co2  87  ASP87      -0.2456
    125  OD2       20.1580   49.1990   38.7870 O.co2  87  ASP87      -0.2456
    126  N         19.1700   49.7220   34.1750 N.3    91  GLY91      -0.1225
    127  CA        19.8990   50.9810   33.9140 C.3    91  GLY91       0.1811
    128  C         20.3210   51.0650   32.4490 C.2    91  GLY91       0.2280
    129  O         20.9400   50.1370   31.8950 O.2    91  GLY91      -0.2866
    130  N         23.5490   55.3350   32.9070 N.3    96  GLN96      -0.1245
    131  CA        22.6220   54.3980   33.5670 C.3    96  GLN96       0.1566
    132  C         21.3450   55.0000   34.0660 C.2    96  GLN96       0.2260
    133  O         21.0790   54.9630   35.2960 O.2    96  GLN96      -0.2867
    134  CB        23.3650   53.6060   34.6750 C.3    96  GLN96       0.0367
    135  CG        24.4810   52.7170   33.9590 C.3    96  GLN96       0.0905
    136  CD        23.8020   51.4960   33.3010 C.2    96  GLN96       0.2608
    137  OE1       23.5720   51.4360   32.0430 O.2    96  GLN96      -0.2717
    138  NE2       23.2970   50.6310   34.1580 N.am   96  GLN96      -0.0878
    139  N         21.7860   58.7890   42.4840 N.3   149  ASN149     -0.1240
    140  CA        21.8270   57.3360   42.6980 C.3   149  ASN149      0.1653
    141  C         20.6380   56.8080   43.4980 C.2   149  ASN149      0.2266
    142  O         20.0840   55.7370   43.1990 O.2   149  ASN149     -0.2867
    143  CB        23.1030   56.9740   43.4440 C.3   149  ASN149      0.1155
    144  CG        23.1640   55.4500   43.8200 C.2   149  ASN149      0.2627
    145  OD1       23.0130   55.0710   44.9840 O.2   149  ASN149     -0.2716
    146  ND2       23.3090   54.6150   42.8220 N.am  149  ASN149     -0.0877
    147  N         24.4800   53.1590   46.5590 N.3   166  THR166     -0.1218
    148  CA        25.1810   51.9590   46.1740 C.3   166  THR166      0.1862
    149  C         26.6260   52.1030   46.6580 C.2   166  THR166      0.2287
    150  O         27.2930   53.1230   46.3730 O.2   166  THR166     -0.2866
    151  CB        25.2270   51.7860   44.6420 C.3   166  THR166      0.1770
    152  OG1       23.8970   51.8740   44.1200 O.3   166  THR166     -0.2211
    153  CG2       25.8390   50.4470   44.2700 C.3   166  THR166      0.0375
    154  N         28.4980   56.9280   47.0260 N.3   170  TYR170     -0.1298
    155  CA        28.2510   57.2970   45.5980 C.3   170  TYR170      0.1290
    156  C         28.7580   58.7090   45.2500 C.3   170  TYR170      0.2013
    157  O         29.5900   58.8840   44.2840 O.3   170  TYR170     -0.2188
    158  CB        26.7750   57.1450   45.2230 C.3   170  TYR170      0.0480
    159  CG        26.5620   57.4620   43.7370 C.ar  170  TYR170     -0.0204
    160  CD1       26.5500   56.4540   42.8070 C.ar  170  TYR170     -0.0009
    161  CD2       26.3390   58.7890   43.2890 C.ar  170  TYR170     -0.0009
    162  CE1       26.3260   56.6830   41.4300 C.ar  170  TYR170      0.0417
    163  CE2       26.1090   59.0630   41.8800 C.ar  170  TYR170      0.0417
    164  CZ        26.1210   58.0050   40.9580 C.ar  170  TYR170      0.1957
    165  OH        25.9360   58.3010   39.5740 O.3   170  TYR170     -0.2866
@<TRIPOS>BOND
     1    52    51    2
     2   109   108    2
     3    50    51    1
     4    50    49    1
     5    50    53    1
     6    54    55    1
     7    54    53    1
     8   108   107    1
     9    55    56    1
    10    97    96    2
    11   107   110    1
    12   107   106    1
    13   111   113    1
    14   111   110    1
    15    56    57    2
    16    92    91    1
    17    92    93    1
    18    92    95    1
    19    58    57    1
    20    94    93    2
    21   110   112    1
    22    96    95    1
    23    96    98   am
    24   106   101   am
    25    93    99   am
    26    57    59    1
    27    44    43    2
    28   101   102    2
    29   101   100    1
    30    99   100    1
    31    83    82    2
    32   100   103    1
    33    43    42    1
    34    37    36    2
    35    82    81    1
    36   129   128    2
    37   114   115    1
    38   137   136    2
    39    42    45    1
    40    42    41    1
    41   128   127    1
    42   103   105    1
    43   103   104    1
    44    36    41   am
    45    36    35    1
    46    45    46    1
    47   130   131    1
    48    81    84    1
    49    81    80    1
    50   115   116    1
    51    84    85    1
    52   136   135    1
    53   136   138   am
    54    47    46   ar
    55   131   132    1
    56   131   134    1
    57    46    48   ar
    58   127   126    1
    59   135   134    1
    60    35    34    1
    61    35    38    1
    62   117   116    2
    63   132   133    2
    64   116   118   am
    65    40    38    1
    66    85    86    1
    67    38    39    1
    68    73    74    2
    69    73    72    1
    70   118   119    1
    71    75    72    1
    72    75    76    1
    73    86    87    1
    74    87    88    2
    75    72    71    1
    76   120   121    2
    77   120   119    1
    78    90    88    1
    79    88    89    1
    80    71    62   am
    81    76    77    1
    82   119   122    1
    83    60    61    1
    84   122   123    1
    85    62    63    2
    86    62    61    1
    87    78    77   ar
    88    77    79   ar
    89    33    31   ar
    90    61    64    1
    91    32    31   ar
    92    31    30    1
    93   123   125   ar
    94   123   124   ar
    95    25    23   am
    96    64    65    1
    97    20    19    2
    98    30    27    1
    99   165   164    1
   100    27    28    1
   101    27    26    1
   102    23    22    1
   103    23    24    2
   104    65    66    1
   105    29    28    2
   106    22    21    1
   107    19    26   am
   108    19    18    1
   109   164   162   ar
   110   164   163   ar
   111    66    67    1
   112    21    18    1
   113   162   160   ar
   114    18    17    1
   115   163   161   ar
   116    67    68    2
   117   139   140    1
   118   140   143    1
   119   140   141    1
   120   160   159   ar
   121   146   144   am
   122   142   141    2
   123    68    69    1
   124    68    70    1
   125   161   159   ar
   126   143   144    1
   127    13    12    2
   128   159   158    1
   129   144   145    2
   130    15    14    1
   131   152   151    1
   132   153   151    1
   133   157   156    1
   134   151   148    1
   135    12    11    1
   136    14    11    1
   137    14    16    1
   138   158   155    1
   139   156   155    1
   140    11    10    1
   141   155   154    1
   142     4     3    2
   143   148   147    1
   144   148   149    1
   145   150   149    2
   146    10     3   am
   147     3     2    1
   148     8     9    1
   149     8     7    1
   150     6     7    1
   151     6     5    1
   152     2     5    1
   153     2     1    1
