@<TRIPOS>MOLECULE
tmp/3gxrD00.pdb
 132 131 0 0 0
SMALL
GASTEIGER

@<TRIPOS>ATOM
      1  N         23.5490   55.3350   32.9070 N.3    96  GLN96      -0.1231
      2  CA        22.6220   54.3980   33.5670 C.3    96  GLN96       0.1698
      3  C         21.3450   55.0000   34.0660 C.2    96  GLN96       0.2592
      4  O         21.0790   54.9630   35.2960 O.2    96  GLN96      -0.2718
      5  CB        23.3650   53.6060   34.6750 C.3    96  GLN96       0.0381
      6  CG        24.4810   52.7170   33.9590 C.3    96  GLN96       0.0905
      7  CD        23.8020   51.4960   33.3010 C.2    96  GLN96       0.2608
      8  OE1       23.5720   51.4360   32.0430 O.2    96  GLN96      -0.2717
      9  NE2       23.2970   50.6310   34.1580 N.am   96  GLN96      -0.0878
     10  N         20.5670   55.5840   33.1360 N.am   97  VAL97      -0.1966
     11  CA        19.2200   56.1330   33.5260 C.3    97  VAL97       0.1727
     12  C         18.3410   54.9600   33.9510 C.2    97  VAL97       0.2616
     13  O         18.3470   54.0090   33.2300 O.2    97  VAL97      -0.2715
     14  CB        18.6100   56.8310   32.3170 C.3    97  VAL97       0.0290
     15  CG1       17.0550   56.9540   32.5000 C.3    97  VAL97       0.0023
     16  CG2       19.3000   58.2290   32.1410 C.3    97  VAL97       0.0023
     17  N         17.5690   55.0440   35.0620 N.am   98  ASP98      -0.1971
     18  CA        16.7700   53.8920   35.5120 C.3    98  ASP98       0.1709
     19  C         15.3790   53.8290   34.8170 C.2    98  ASP98       0.2293
     20  O         14.5890   54.7400   34.9980 O.2    98  ASP98      -0.2864
     21  CB        16.6410   53.8430   37.0310 C.3    98  ASP98       0.1436
     22  CG        16.1320   52.4800   37.5030 C.2    98  ASP98       0.3671
     23  OD1       15.0850   52.0400   36.9790 O.co2  98  ASP98      -0.2456
     24  OD2       16.7630   51.8540   38.3660 O.co2  98  ASP98      -0.2456
     25  N         11.9960   54.6420   36.2900 N.3   101  TYR101     -0.1227
     26  CA        11.5760   55.9840   36.6320 C.3   101  TYR101      0.1736
     27  C         11.5580   56.9510   35.4390 C.2   101  TYR101      0.2595
     28  O         10.9230   57.9990   35.5260 O.2   101  TYR101     -0.2718
     29  CB        12.4760   56.5240   37.7450 C.3   101  TYR101      0.0548
     30  CG        12.4980   55.6110   38.9340 C.ar  101  TYR101     -0.0200
     31  CD1       11.5170   55.7390   39.9060 C.ar  101  TYR101     -0.0009
     32  CD2       13.4880   54.6410   39.0980 C.ar  101  TYR101     -0.0009
     33  CE1       11.5010   54.9520   40.9970 C.ar  101  TYR101      0.0417
     34  CE2       13.4850   53.8200   40.2260 C.ar  101  TYR101      0.0417
     35  CZ        12.4660   53.9910   41.1620 C.ar  101  TYR101      0.1957
     36  OH        12.3890   53.2360   42.2920 O.3   101  TYR101     -0.2866
     37  N         12.3090   56.6270   34.3790 N.am  102  HIS102     -0.1975
     38  CA        12.4510   57.4640   33.1960 C.3   102  HIS102      0.1656
     39  C         12.4170   56.5780   31.9220 C.2   102  HIS102      0.2291
     40  O         12.9690   55.4860   31.9100 O.2   102  HIS102     -0.2864
     41  CB        13.7640   58.2720   33.2360 C.3   102  HIS102      0.0771
     42  CG        14.1070   58.8250   34.5850 C.ar  102  HIS102      0.0820
     43  ND1       13.6830   60.0680   35.0230 N.ar  102  HIS102     -0.2267
     44  CD2       14.8400   58.3010   35.5940 C.ar  102  HIS102      0.1154
     45  CE1       14.1550   60.2880   36.2350 C.ar  102  HIS102      0.1986
     46  NE2       14.8510   59.2270   36.6080 N.ar  102  HIS102     -0.2212
     47  N         18.3250   64.9140   34.4830 N.3   120  ILE120     -0.1245
     48  CA        17.9120   64.2660   35.7320 C.3   120  ILE120      0.1561
     49  C         18.7580   64.7660   36.9150 C.2   120  ILE120      0.2260
     50  O         18.2330   65.0910   38.0150 O.2   120  ILE120     -0.2867
     51  CB        18.0200   62.7290   35.6220 C.3   120  ILE120      0.0252
     52  CG1       17.0380   62.1990   34.5430 C.3   120  ILE120      0.0019
     53  CG2       17.8690   62.0580   37.0460 C.3   120  ILE120      0.0019
     54  CD1       17.3340   60.8400   34.0960 C.3   120  ILE120      0.0001
     55  N         17.6590   68.3700   37.7550 N.3   123  ASN123     -0.1225
     56  CA        16.4320   68.2830   38.5910 C.3   123  ASN123      0.1785
     57  C         16.7270   67.9700   40.0510 C.2   123  ASN123      0.2597
     58  O         16.1360   68.5540   40.9490 O.2   123  ASN123     -0.2718
     59  CB        15.4240   67.2890   38.0120 C.3   123  ASN123      0.1169
     60  CG        14.0300   67.4060   38.6740 C.2   123  ASN123      0.2627
     61  OD1       13.4990   66.4190   39.1520 O.2   123  ASN123     -0.2716
     62  ND2       13.4760   68.6180   38.7260 N.am  123  ASN123     -0.0877
     63  N         17.6750   67.0800   40.2840 N.am  124  PHE124     -0.1976
     64  CA        18.0750   66.7710   41.6590 C.3   124  PHE124      0.1639
     65  C         18.8210   67.9000   42.3780 C.2   124  PHE124      0.2290
     66  O         18.5960   68.1380   43.5710 O.2   124  PHE124     -0.2864
     67  CB        18.8700   65.4690   41.6600 C.3   124  PHE124      0.0560
     68  CG        18.0340   64.2490   41.5720 C.ar  124  PHE124     -0.0200
     69  CD1       16.9040   64.0750   42.4180 C.ar  124  PHE124     -0.0042
     70  CD2       18.3390   63.2510   40.6620 C.ar  124  PHE124     -0.0042
     71  CE1       16.1410   62.9080   42.3430 C.ar  124  PHE124     -0.0003
     72  CE2       17.5420   62.0800   40.5900 C.ar  124  PHE124     -0.0003
     73  CZ        16.4580   61.9230   41.4340 C.ar  124  PHE124     -0.0000
     74  N         21.6140   61.9400   45.2980 N.3   147  ALA147     -0.1231
     75  CA        20.2270   61.8370   44.8620 C.3   147  ALA147      0.1694
     76  C         20.1170   61.1860   43.4900 C.2   147  ALA147      0.2592
     77  O         19.1480   60.4540   43.2150 O.2   147  ALA147     -0.2718
     78  CB        19.5200   63.2240   44.9200 C.3   147  ALA147      0.0304
     79  N         21.1180   61.4420   42.6330 N.am  148  TYR148     -0.1962
     80  CA        21.1640   60.8390   41.3020 C.3   148  TYR148      0.1771
     81  C         21.1390   59.3100   41.4310 C.2   148  TYR148      0.2620
     82  O         20.5450   58.6120   40.6080 O.2   148  TYR148     -0.2715
     83  CB        22.4310   61.2360   40.5700 C.3   148  TYR148      0.0574
     84  CG        22.4440   60.7680   39.1330 C.ar  148  TYR148     -0.0198
     85  CD1       21.7900   61.5100   38.1160 C.ar  148  TYR148     -0.0009
     86  CD2       23.1090   59.5880   38.7650 C.ar  148  TYR148     -0.0009
     87  CE1       21.8240   61.0670   36.7880 C.ar  148  TYR148      0.0417
     88  CE2       23.1230   59.1260   37.4810 C.ar  148  TYR148      0.0417
     89  CZ        22.4870   59.8570   36.4930 C.ar  148  TYR148      0.1957
     90  OH        22.5340   59.3710   35.1990 O.3   148  TYR148     -0.2866
     91  N         21.7860   58.7890   42.4840 N.am  149  ASN149     -0.1958
     92  CA        21.8270   57.3360   42.6980 C.3   149  ASN149      0.1819
     93  C         20.6380   56.8080   43.4980 C.2   149  ASN149      0.2622
     94  O         20.0840   55.7370   43.1990 O.2   149  ASN149     -0.2715
     95  CB        23.1030   56.9740   43.4440 C.3   149  ASN149      0.1195
     96  CG        23.1640   55.4500   43.8200 C.2   149  ASN149      0.2630
     97  OD1       23.0130   55.0710   44.9840 O.2   149  ASN149     -0.2716
     98  ND2       23.3090   54.6150   42.8220 N.am  149  ASN149     -0.0877
     99  N         20.2480   57.5330   44.5300 N.am  150  THR150     -0.1937
    100  CA        19.3170   56.9200   45.5110 C.3   150  THR150      0.2028
    101  C         17.9930   57.6870   45.6560 C.2   150  THR150      0.2643
    102  O         17.0500   57.2330   46.3410 O.2   150  THR150     -0.2714
    103  CB        20.0210   56.7530   46.8880 C.3   150  THR150      0.1808
    104  OG1       19.3400   55.7620   47.6980 O.3   150  THR150     -0.2208
    105  CG2       20.1060   58.0750   47.5860 C.3   150  THR150      0.0379
    106  N         17.8910   58.8200   44.9700 N.am  151  GLY151     -0.1939
    107  CA        16.7400   59.7250   45.0880 C.3   151  GLY151      0.2014
    108  C         16.8450   60.7290   46.2260 C.2   151  GLY151      0.2639
    109  O         17.4900   60.4670   47.2280 O.2   151  GLY151     -0.2714
    110  N         16.2680   61.9170   46.0540 N.am  152  ASP152     -0.1957
    111  CA        16.4040   62.9840   47.0380 C.3   152  ASP152      0.1840
    112  C         15.7310   62.5730   48.3610 C.2   152  ASP152      0.2623
    113  O         16.1510   62.9920   49.4410 O.2   152  ASP152     -0.2715
    114  CB        15.8280   64.3240   46.5320 C.3   152  ASP152      0.1450
    115  CG        14.3500   64.2130   46.1270 C.2   152  ASP152      0.3671
    116  OD1       14.0240   63.5400   45.1430 O.co2 152  ASP152     -0.2456
    117  OD2       13.4940   64.8020   46.8360 O.co2 152  ASP152     -0.2456
    118  N         14.7280   61.7280   48.2830 N.am  153  GLY153     -0.1940
    119  CA        14.0560   61.3080   49.5190 C.3   153  GLY153      0.2014
    120  C         14.9410   60.4490   50.4340 C.2   153  GLY153      0.2638
    121  O         14.6400   60.2810   51.6350 O.2   153  GLY153     -0.2714
    122  N         16.0380   59.9120   49.8750 N.am  154  ARG154     -0.1977
    123  CA        16.9670   59.0840   50.6200 C.3   154  ARG154      0.1597
    124  C         18.3060   59.8080   50.9100 C.2   154  ARG154      0.2287
    125  O         19.2770   59.1780   51.3470 O.2   154  ARG154     -0.2864
    126  CB        17.2020   57.7400   49.9380 C.3   154  ARG154      0.0334
    127  CG        16.0350   56.6990   50.1080 C.3   154  ARG154      0.0492
    128  CD        16.4370   55.2990   49.5990 C.3   154  ARG154      0.2205
    129  NE        16.3060   55.1430   48.1510 N.pl3 154  ARG154     -0.0865
    130  CZ        15.1540   54.9550   47.4950 C.cat 154  ARG154      0.5346
    131  NH1       13.9920   54.9090   48.1440 N.pl3 154  ARG154      0.1354
    132  NH2       15.1630   54.8240   46.1750 N.pl3 154  ARG154      0.1354
@<TRIPOS>BOND
     1    40    39    2
     2    39    38    1
     3     8     7    2
     4    16    14    1
     5    14    15    1
     6    14    11    1
     7     1     2    1
     8    10    11    1
     9    10     3   am
    10    38    41    1
    11    38    37    1
    12    13    12    2
    13    41    42    1
    14     7     6    1
    15     7     9   am
    16    11    12    1
    17     2     3    1
    18     2     5    1
    19    12    17   am
    20     6     5    1
    21     3     4    2
    22    54    52    1
    23    37    27   am
    24    47    48    1
    25    52    51    1
    26    42    43   ar
    27    42    44   ar
    28    19    20    2
    29    19    18    1
    30    43    45   ar
    31    17    18    1
    32    90    89    1
    33    27    28    2
    34    27    26    1
    35    18    21    1
    36    44    46   ar
    37    51    48    1
    38    51    53    1
    39    48    49    1
    40    45    46   ar
    41    25    26    1
    42    89    87   ar
    43    89    88   ar
    44    26    29    1
    45    87    85   ar
    46    49    50    2
    47    23    22   ar
    48    21    22    1
    49    88    86   ar
    50    22    24   ar
    51    29    30    1
    52    55    56    1
    53    59    56    1
    54    59    60    1
    55    85    84   ar
    56    56    57    1
    57    60    62   am
    58    60    61    2
    59    86    84   ar
    60    30    32   ar
    61    30    31   ar
    62    32    34   ar
    63    84    83    1
    64    31    33   ar
    65    57    63   am
    66    57    58    2
    67    34    35   ar
    68    63    64    1
    69    83    80    1
    70    72    70   ar
    71    72    73   ar
    72    82    81    2
    73    70    68   ar
    74    33    35   ar
    75    35    36    1
    76    80    81    1
    77    80    79    1
    78    81    91   am
    79    73    71   ar
    80    68    67    1
    81    68    69   ar
    82    64    67    1
    83    64    65    1
    84    71    69   ar
    85    65    66    2
    86    91    92    1
    87    79    76   am
    88    92    95    1
    89    92    93    1
    90    98    96   am
    91    94    93    2
    92    77    76    2
    93    95    96    1
    94    76    75    1
    95    93    99   am
    96    96    97    2
    97    99   100    1
    98    75    78    1
    99    75    74    1
   100   106   107    1
   101   106   101   am
   102   107   108    1
   103   116   115   ar
   104   100   101    1
   105   100   103    1
   106   101   102    2
   107   110   108   am
   108   110   111    1
   109   115   114    1
   110   115   117   ar
   111   132   130    1
   112   108   109    2
   113   114   111    1
   114   103   105    1
   115   103   104    1
   116   111   112    1
   117   130   131    1
   118   130   129    2
   119   129   128    1
   120   118   112   am
   121   118   119    1
   122   112   113    2
   123   119   120    1
   124   128   127    1
   125   122   120   am
   126   122   123    1
   127   126   127    1
   128   126   123    1
   129   120   121    2
   130   123   124    1
   131   124   125    2
