@<TRIPOS>MOLECULE
tmp/3zxrD00.pdb
 160 157 0 0 0
SMALL
GASTEIGER

@<TRIPOS>ATOM
      1  N         49.8510   17.5030   25.3030 N.3   126  TYR126     -0.1241
      2  CA        48.4790   17.8360   24.8960 C.3   126  TYR126      0.1605
      3  C         47.5530   17.8400   26.0880 C.2   126  TYR126      0.2264
      4  O         47.5730   16.9300   26.8960 O.2   126  TYR126     -0.2867
      5  CB        47.9580   16.8580   23.8280 C.3   126  TYR126      0.0534
      6  CG        48.5550   17.0770   22.4540 C.ar  126  TYR126     -0.0201
      7  CD1       48.4380   18.3210   21.8090 C.ar  126  TYR126     -0.0009
      8  CD2       49.2310   16.0460   21.7880 C.ar  126  TYR126     -0.0009
      9  CE1       48.9840   18.5370   20.5430 C.ar  126  TYR126      0.0417
     10  CE2       49.7750   16.2500   20.5020 C.ar  126  TYR126      0.0417
     11  CZ        49.6450   17.4970   19.8930 C.ar  126  TYR126      0.1957
     12  OH        50.1860   17.6960   18.6520 O.3   126  TYR126     -0.2866
     13  N         43.4750   18.2910   27.1300 N.3   128  GLY128     -0.1210
     14  CA        42.0590   18.3560   26.7970 C.3   128  GLY128      0.1956
     15  C         41.3510   18.6210   28.1040 C.2   128  GLY128      0.2612
     16  O         41.4750   17.8510   29.0440 O.2   128  GLY128     -0.2717
     17  N         40.6300   19.7310   28.1790 N.am  129  ALA129     -0.1965
     18  CA        39.9930   20.1670   29.4280 C.3   129  ALA129      0.1728
     19  C         38.4920   20.1160   29.3470 C.2   129  ALA129      0.2616
     20  O         37.9250   20.2500   28.2730 O.2   129  ALA129     -0.2715
     21  CB        40.4450   21.5780   29.7720 C.3   129  ALA129      0.0334
     22  N         37.8560   19.9250   30.4910 N.am  130  GLU130     -0.1977
     23  CA        36.4160   20.0150   30.5980 C.3   130  GLU130      0.1602
     24  C         36.0890   20.9670   31.7320 C.2   130  GLU130      0.2287
     25  O         36.0410   20.5480   32.8930 O.2   130  GLU130     -0.2864
     26  CB        35.8190   18.6640   30.9540 C.3   130  GLU130      0.0415
     27  CG        36.2060   17.4920   30.0770 C.3   130  GLU130      0.1163
     28  CD        35.8700   16.1910   30.7510 C.2   130  GLU130      0.3649
     29  OE1       34.6760   15.8760   30.9110 O.co2 130  GLU130     -0.2457
     30  OE2       36.8080   15.5050   31.1830 O.co2 130  GLU130     -0.2457
     31  N         33.3270   19.9050   20.2100 N.3   211  GLU211     -0.1231
     32  CA        33.0920   18.4760   20.3090 C.3   211  GLU211      0.1699
     33  C         31.7580   18.1210   20.8860 C.2   211  GLU211      0.2592
     34  O         31.0540   17.3080   20.3230 O.2   211  GLU211     -0.2718
     35  CB        34.2120   17.7940   21.0720 C.3   211  GLU211      0.0402
     36  CG        35.3190   17.3970   20.1070 C.3   211  GLU211      0.1161
     37  CD        36.6250   17.1360   20.7900 C.2   211  GLU211      0.3649
     38  OE1       36.6130   16.8560   22.0230 O.co2 211  GLU211     -0.2457
     39  OE2       37.6610   17.2030   20.0900 O.co2 211  GLU211     -0.2457
     40  N         31.4330   18.6850   22.0360 N.am  212  LYS212     -0.1980
     41  CA        30.0790   18.5360   22.5590 C.3   212  LYS212      0.1596
     42  C         29.6790   19.5720   23.5950 C.2   212  LYS212      0.2287
     43  O         30.5180   20.3190   24.1280 O.2   212  LYS212     -0.2864
     44  CB        29.7830   17.1170   23.0560 C.3   212  LYS212      0.0298
     45  CG        30.4950   16.6800   24.3110 C.3   212  LYS212      0.0038
     46  CD        30.1080   15.2380   24.5850 C.3   212  LYS212      0.0206
     47  CE        31.2920   14.3930   25.0640 C.3   212  LYS212      0.1093
     48  NZ        31.1260   14.0390   26.5010 N.3   212  LYS212     -0.1314
     49  N         32.6510   21.0270   25.4480 N.3   226  ASN226     -0.1225
     50  CA        33.9730   20.5160   25.1380 C.3   226  ASN226      0.1785
     51  C         34.4290   21.0420   23.7930 C.2   226  ASN226      0.2597
     52  O         33.6600   21.0720   22.8180 O.2   226  ASN226     -0.2718
     53  CB        33.9720   18.9960   25.0450 C.3   226  ASN226      0.1169
     54  CG        33.7310   18.2940   26.3640 C.2   226  ASN226      0.2627
     55  OD1       33.5660   17.0660   26.3600 O.2   226  ASN226     -0.2716
     56  ND2       33.7300   19.0230   27.4860 N.am  226  ASN226     -0.0877
     57  N         35.6990   21.4280   23.7500 N.am  227  TYR227     -0.1976
     58  CA        36.3670   21.8030   22.5220 C.3   227  TYR227      0.1639
     59  C         37.6570   20.9560   22.3890 C.2   227  TYR227      0.2290
     60  O         38.1690   20.3930   23.3840 O.2   227  TYR227     -0.2864
     61  CB        36.6690   23.3250   22.4950 C.3   227  TYR227      0.0560
     62  CG        37.3990   23.8300   23.7270 C.ar  227  TYR227     -0.0198
     63  CD1       38.7780   23.7710   23.8200 C.ar  227  TYR227     -0.0009
     64  CD2       36.6940   24.3550   24.8060 C.ar  227  TYR227     -0.0009
     65  CE1       39.4430   24.2310   24.9680 C.ar  227  TYR227      0.0417
     66  CE2       37.3380   24.8200   25.9360 C.ar  227  TYR227      0.0417
     67  CZ        38.7070   24.7610   26.0170 C.ar  227  TYR227      0.1957
     68  OH        39.3260   25.2110   27.1670 O.3   227  TYR227     -0.2866
     69  N         41.2570   19.3470   22.1540 N.3   229  PHE229     -0.1241
     70  CA        42.5160   19.4710   22.8920 C.3   229  PHE229      0.1605
     71  C         43.5550   20.2570   22.0920 C.2   229  PHE229      0.2264
     72  O         43.3980   20.4260   20.8800 O.2   229  PHE229     -0.2867
     73  CB        43.0710   18.0830   23.2520 C.3   229  PHE229      0.0534
     74  CG        43.5720   17.2870   22.0610 C.ar  229  PHE229     -0.0203
     75  CD1       42.6890   16.5430   21.2700 C.ar  229  PHE229     -0.0042
     76  CD2       44.9290   17.2920   21.7320 C.ar  229  PHE229     -0.0042
     77  CE1       43.1370   15.8160   20.1800 C.ar  229  PHE229     -0.0003
     78  CE2       45.4090   16.5640   20.6240 C.ar  229  PHE229     -0.0003
     79  CZ        44.5120   15.8240   19.8500 C.ar  229  PHE229     -0.0000
     80  N         42.5690   15.9370   30.5210 N.3   275  HIS275     -0.1226
     81  CA        43.0310   14.7830   29.7650 C.3   275  HIS275      0.1752
     82  C         44.4160   15.1280   29.2500 C.2   275  HIS275      0.2596
     83  O         44.6090   16.1420   28.5900 O.2   275  HIS275     -0.2718
     84  CB        42.0800   14.4840   28.5880 C.3   275  HIS275      0.0759
     85  CG        40.7090   14.0210   29.0060 C.ar  275  HIS275      0.0818
     86  ND1       40.2140   12.7790   28.6750 N.ar  275  HIS275     -0.2268
     87  CD2       39.7410   14.6280   29.7390 C.ar  275  HIS275      0.1154
     88  CE1       39.0070   12.6350   29.1920 C.ar  275  HIS275      0.1986
     89  NE2       38.6930   13.7450   29.8400 N.ar  275  HIS275     -0.2212
     90  N         45.3880   14.2840   29.5570 N.am  276  GLN276     -0.1965
     91  CA        46.7760   14.5980   29.2500 C.3   276  GLN276      0.1733
     92  C         47.4750   13.5070   28.4720 C.2   276  GLN276      0.2617
     93  O         47.3030   12.3260   28.7700 O.2   276  GLN276     -0.2715
     94  CB        47.5440   14.8730   30.5340 C.3   276  GLN276      0.0408
     95  CG        47.1490   16.1710   31.1840 C.3   276  GLN276      0.0908
     96  CD        47.4770   16.2040   32.6710 C.2   276  GLN276      0.2608
     97  OE1       48.6410   16.3410   33.0640 O.2   276  GLN276     -0.2717
     98  NE2       46.4440   16.0710   33.5060 N.am  276  GLN276     -0.0878
     99  N         48.2750   13.9070   27.4810 N.am  277  SER277     -0.1950
    100  CA        49.1650   12.9770   26.7820 C.3   277  SER277      0.1924
    101  C         50.4720   13.6230   26.3330 C.2   277  SER277      0.2314
    102  O         50.5330   14.8290   26.1030 O.2   277  SER277     -0.2863
    103  CB        48.4510   12.3270   25.5860 C.3   277  SER277      0.2116
    104  OG        48.3390   13.2340   24.5070 O.3   277  SER277     -0.2180
    105  N         53.6100   13.5090   23.4240 N.3   279  TRP279     -0.1241
    106  CA        53.9270   13.1030   22.0660 C.3   279  TRP279      0.1605
    107  C         55.3640   13.4880   21.7480 C.2   279  TRP279      0.2264
    108  O         55.8740   14.4780   22.2690 O.2   279  TRP279     -0.2867
    109  CB        52.9380   13.7190   21.0550 C.3   279  TRP279      0.0550
    110  CG        51.5350   13.1180   21.1090 C.ar  279  TRP279      0.0003
    111  CD1       50.7300   12.9940   22.2170 C.ar  279  TRP279      0.0946
    112  CD2       50.7670   12.5960   20.0070 C.ar  279  TRP279      0.0152
    113  NE1       49.5250   12.4210   21.8780 N.ar  279  TRP279     -0.2442
    114  CE2       49.5160   12.1660   20.5310 C.ar  279  TRP279      0.0810
    115  CE3       51.0150   12.4370   18.6340 C.ar  279  TRP279      0.0012
    116  CZ2       48.5220   11.5860   19.7300 C.ar  279  TRP279      0.0191
    117  CZ3       50.0220   11.8630   17.8310 C.ar  279  TRP279      0.0001
    118  CH2       48.7900   11.4450   18.3870 C.ar  279  TRP279      0.0015
    119  N         43.3440    2.2170   19.6290 N.3   356  ASN356     -0.1240
    120  CA        43.9640    3.3350   18.9310 C.3   356  ASN356      0.1653
    121  C         44.9970    4.0280   19.8210 C.2   356  ASN356      0.2266
    122  O         44.6410    4.6620   20.8150 O.2   356  ASN356     -0.2867
    123  CB        42.9060    4.3470   18.4700 C.3   356  ASN356      0.1155
    124  CG        43.5070    5.5600   17.7290 C.2   356  ASN356      0.2627
    125  OD1       44.7160    5.6570   17.5140 O.2   356  ASN356     -0.2716
    126  ND2       42.6450    6.4920   17.3450 N.am  356  ASN356     -0.0877
    127  N         46.6570    6.6980   19.4430 N.3   358  LYS358     -0.1231
    128  CA        46.5740    8.1530   19.4530 C.3   358  LYS358      0.1693
    129  C         45.5520    8.6810   20.4700 C.2   358  LYS358      0.2592
    130  O         45.6460    9.8420   20.9100 O.2   358  LYS358     -0.2718
    131  CB        46.2630    8.6790   18.0560 C.3   358  LYS358      0.0285
    132  CG        47.2410    8.1950   17.0020 C.3   358  LYS358      0.0035
    133  CD        47.0610    8.9430   15.7140 C.3   358  LYS358      0.0206
    134  CE        48.0200    8.4460   14.6490 C.3   358  LYS358      0.1093
    135  NZ        47.8250    9.2350   13.4040 N.3   358  LYS358     -0.1314
    136  N         44.6010    7.8240   20.8450 N.am  359  ALA359     -0.1966
    137  CA        43.5190    8.1920   21.7670 C.3   359  ALA359      0.1728
    138  C         43.8230    7.9250   23.2430 C.2   359  ALA359      0.2616
    139  O         43.0770    8.3510   24.1180 O.2   359  ALA359     -0.2715
    140  CB        42.2160    7.5130   21.3700 C.3   359  ALA359      0.0334
    141  N         44.9080    7.2100   23.5230 N.am  360  LYS360     -0.1963
    142  CA        45.2310    6.8330   24.9000 C.3   360  LYS360      0.1728
    143  C         45.6910    8.0420   25.7000 C.2   360  LYS360      0.2616
    144  O         46.6090    8.7470   25.3100 O.2   360  LYS360     -0.2715
    145  CB        46.3000    5.7410   24.9350 C.3   360  LYS360      0.0311
    146  CG        46.5910    5.1790   26.3360 C.3   360  LYS360      0.0038
    147  CD        45.8060    3.8970   26.5980 C.3   360  LYS360      0.0206
    148  CE        44.3650    4.1640   26.9880 C.3   360  LYS360      0.1093
    149  NZ        43.5610    2.9380   27.1470 N.3   360  LYS360     -0.1314
    150  N         45.0380    8.2770   26.8290 N.am  361  ARG361     -0.1977
    151  CA        45.4550    9.3340   27.7330 C.3   361  ARG361      0.1597
    152  C         44.9270    9.0840   29.1550 C.2   361  ARG361      0.2287
    153  O         44.0980    8.1830   29.3800 O.2   361  ARG361     -0.2864
    154  CB        44.9940   10.7130   27.2110 C.3   361  ARG361      0.0334
    155  CG        43.4990   11.0360   27.4170 C.3   361  ARG361      0.0492
    156  CD        42.6870   10.6990   26.2170 C.3   361  ARG361      0.2205
    157  NE        41.3090   11.1760   26.2780 N.pl3 361  ARG361     -0.0865
    158  CZ        40.3700   10.8260   25.3980 C.cat 361  ARG361      0.5346
    159  NH1       40.6650   10.0210   24.3760 N.pl3 361  ARG361      0.1354
    160  NH2       39.1380   11.2880   25.5250 N.pl3 361  ARG361      0.1354
@<TRIPOS>BOND
     1   135   134    1
     2   134   133    1
     3   133   132    1
     4   132   131    1
     5   126   124   am
     6   125   124    2
     7   124   123    1
     8   117   118   ar
     9   117   115   ar
    10   131   128    1
    11   118   116   ar
    12   123   120    1
    13   115   112   ar
    14    12    11    1
    15   120   119    1
    16   120   121    1
    17   127   128    1
    18   128   129    1
    19   116   114   ar
    20   121   122    2
    21    79    77   ar
    22    79    78   ar
    23    11    10   ar
    24    11     9   ar
    25   112   114   ar
    26   112   110   ar
    27    39    37   ar
    28    36    37    1
    29    36    35    1
    30    77    75   ar
    31    31    32    1
    32    32    33    1
    33    32    35    1
    34    34    33    2
    35   129   136   am
    36   129   130    2
    37    10     8   ar
    38   114   113   ar
    39     9     7   ar
    40    78    76   ar
    41    37    38   ar
    42   136   137    1
    43    72    71    2
    44    33    40   am
    45   109   110    1
    46   109   106    1
    47   110   111   ar
    48    75    74   ar
    49   140   137    1
    50    76    74   ar
    51   107   106    1
    52   107   108    2
    53   137   138    1
    54     8     6   ar
    55     7     6   ar
    56   113   111   ar
    57    40    41    1
    58    74    73    1
    59   106   105    1
    60    71    70    1
    61    69    70    1
    62    59    58    1
    63    59    60    2
    64     6     5    1
    65    61    58    1
    66    61    62    1
    67    58    57    1
    68    41    44    1
    69    41    42    1
    70    52    51    2
    71    70    73    1
    72    44    45    1
    73   138   141   am
    74   138   139    2
    75   141   142    1
    76    42    43    2
    77    62    63   ar
    78    62    64   ar
    79    57    51   am
    80    51    50    1
    81    63    65   ar
    82     5     2    1
    83    45    46    1
    84   159   158    1
    85   104   103    1
    86    46    47    1
    87    64    66   ar
    88     2     1    1
    89     2     3    1
    90   142   145    1
    91   142   143    1
    92   145   146    1
    93    65    67   ar
    94    53    50    1
    95    53    54    1
    96    47    48    1
    97    50    49    1
    98   144   143    2
    99   158   160    1
   100   158   157    2
   101   103   100    1
   102   143   150   am
   103    66    67   ar
   104    67    68    1
   105     3     4    2
   106   102   101    2
   107   156   157    1
   108   156   155    1
   109   101   100    1
   110   146   147    1
   111    55    54    2
   112    54    56   am
   113   147   148    1
   114   100    99    1
   115    14    13    1
   116    14    15    1
   117   150   151    1
   118   148   149    1
   119   154   155    1
   120   154   151    1
   121    99    92   am
   122   151   152    1
   123    15    17   am
   124    15    16    2
   125    17    18    1
   126    20    19    2
   127    92    93    2
   128    92    91    1
   129    84    85    1
   130    84    81    1
   131    83    82    2
   132    86    85   ar
   133    86    88   ar
   134    85    87   ar
   135   152   153    2
   136    88    89   ar
   137    91    90    1
   138    91    94    1
   139    82    90   am
   140    82    81    1
   141    19    18    1
   142    19    22   am
   143    18    21    1
   144    87    89   ar
   145    81    80    1
   146    27    28    1
   147    27    26    1
   148    22    23    1
   149    94    95    1
   150    23    26    1
   151    23    24    1
   152    28    29   ar
   153    28    30   ar
   154    95    96    1
   155    24    25    2
   156    96    97    2
   157    96    98   am
